# % length, normalized linear mass density (mass/mass_tot) / (length / SVL or VTL)
0.000000000000000000e+00 4.458477669101283403e-01
1.000000000000000021e-02 3.748606730010683452e-01
2.000000000000000042e-02 3.038735790920082391e-01
2.999999999999999889e-02 2.328864851829482718e-01
4.000000000000000083e-02 1.725978169496187320e-01
5.000000000000000278e-02 1.421405755336143661e-01
5.999999999999999778e-02 1.247383576280226558e-01
7.000000000000000666e-02 1.073361397224309871e-01
8.000000000000000167e-02 9.638288051927916544e-02
8.999999999999999667e-02 9.410461606839280735e-02
1.000000000000000056e-01 9.220536371247711749e-02
1.100000000000000006e-01 9.078735072359522817e-02
1.199999999999999956e-01 9.082311827234394730e-02
1.300000000000000044e-01 9.085888582109268030e-02
1.400000000000000133e-01 9.098062702189108064e-02
1.499999999999999944e-01 9.042792452957464089e-02
1.600000000000000033e-01 8.915831517283205609e-02
1.700000000000000122e-01 8.788870581608944355e-02
1.799999999999999933e-01 8.672680162651824620e-02
1.900000000000000022e-01 8.579335588489618580e-02
2.000000000000000111e-01 8.475754775178016842e-02
2.099999999999999922e-01 8.372173961866409553e-02
2.200000000000000011e-01 8.264083662935912955e-02
2.300000000000000100e-01 8.110057540184216485e-02
2.399999999999999911e-01 7.930097918409578783e-02
2.500000000000000000e-01 7.750138296634939694e-02
2.600000000000000089e-01 7.571573655468370745e-02
2.700000000000000178e-01 7.395362946807977622e-02
2.800000000000000266e-01 7.302832336181115658e-02
2.899999999999999800e-01 7.285688266224811527e-02
2.999999999999999889e-01 7.249183351722915392e-02
3.099999999999999978e-01 7.204029042906007207e-02
3.200000000000000067e-01 7.158874734089097636e-02
3.300000000000000155e-01 7.032133060575489203e-02
3.400000000000000244e-01 6.941518775391071483e-02
3.500000000000000333e-01 6.850904490206650987e-02
3.599999999999999867e-01 6.760290205022233267e-02
3.699999999999999956e-01 6.645068027035622160e-02
3.800000000000000044e-01 6.511503575877239380e-02
3.900000000000000133e-01 6.377939124718857988e-02
4.000000000000000222e-01 6.244374673560473821e-02
4.100000000000000311e-01 6.113150393423688600e-02
4.199999999999999845e-01 5.922062442526006970e-02
4.299999999999999933e-01 5.721036704837919457e-02
4.400000000000000022e-01 5.520346747633151502e-02
4.500000000000000111e-01 5.364676480275946263e-02
4.600000000000000200e-01 5.238653429473233425e-02
4.700000000000000289e-01 5.160738662894054363e-02
4.799999999999999822e-01 5.060566593853876860e-02
4.899999999999999911e-01 4.934731118706250225e-02
5.000000000000000000e-01 4.808895643558622895e-02
5.100000000000000089e-01 4.676177832725759292e-02
5.200000000000000178e-01 4.553000068430729935e-02
5.300000000000000266e-01 4.436002105531846457e-02
5.400000000000000355e-01 4.319004142632962284e-02
5.500000000000000444e-01 4.207177895239308518e-02
5.600000000000000533e-01 4.092517744491161458e-02
5.700000000000000622e-01 3.981417970032950088e-02
5.799999999999999600e-01 3.884120224241183889e-02
5.899999999999999689e-01 3.787989790957254493e-02
5.999999999999999778e-01 3.712832341736573699e-02
6.099999999999999867e-01 3.639437061353087421e-02
6.199999999999999956e-01 3.566041780969600450e-02
6.300000000000000044e-01 3.496284319713319211e-02
6.400000000000000133e-01 3.435572099528091949e-02
6.500000000000000222e-01 3.379324677887773215e-02
6.600000000000000311e-01 3.323077256247455175e-02
6.700000000000000400e-01 3.255561114270699025e-02
6.800000000000000488e-01 3.178368886171720198e-02
6.900000000000000577e-01 3.083002158374792412e-02
7.000000000000000666e-01 2.971117739103558766e-02
7.099999999999999645e-01 2.866632068360192021e-02
7.199999999999999734e-01 2.763327775260285279e-02
7.299999999999999822e-01 2.660023482160378885e-02
7.399999999999999911e-01 2.564612566348644859e-02
7.500000000000000000e-01 2.467644417510677854e-02
7.600000000000000089e-01 2.370676268672711196e-02
7.700000000000000178e-01 2.273708119834744190e-02
7.800000000000000266e-01 2.181273926842331942e-02
7.900000000000000355e-01 2.089472786577000266e-02
8.000000000000000444e-01 2.000026566776888851e-02
8.100000000000000533e-01 1.925793799097916259e-02
8.200000000000000622e-01 1.842772661195857253e-02
8.300000000000000711e-01 1.766526347209923520e-02
8.399999999999999689e-01 1.693729899489350432e-02
8.499999999999999778e-01 1.617127945691220967e-02
8.599999999999999867e-01 1.532516035169589896e-02
8.699999999999999956e-01 1.447904124647959347e-02
8.800000000000000044e-01 1.360252678619304316e-02
8.900000000000000133e-01 1.281390312175513697e-02
9.000000000000000222e-01 1.212701868062369091e-02
9.100000000000000311e-01 1.145891529832864485e-02
9.200000000000000400e-01 1.079081191603359878e-02
9.300000000000000488e-01 1.016528642979457574e-02
9.400000000000000577e-01 9.557553812797678003e-03
9.500000000000000666e-01 8.999029337915949098e-03
9.599999999999999645e-01 8.405940460061843422e-03
9.699999999999999734e-01 7.717254620886231098e-03
9.799999999999999822e-01 7.028568781710617906e-03
9.899999999999999911e-01 6.339882942535005582e-03
1.000000000000000000e+00 5.651197103359391523e-03
